# #Frequency (Hz) #SPAC Function #Coherence
0.000000000000000000e+00 2.823460268195751022e-01
1.220703125000000000e-02 3.045349169412172041e-01
2.441406250000000000e-02 3.239648202269320154e-01
3.662109375000000000e-02 3.495446647104683002e-01
4.882812500000000000e-02 3.662289726085618535e-01
6.103515625000000000e-02 3.722059764297445672e-01
7.324218750000000000e-02 3.729841485920387112e-01
8.544921875000000000e-02 3.771178877195033863e-01
9.765625000000000000e-02 3.805219735436974338e-01
1.098632812500000000e-01 3.887299279634914839e-01
1.220703125000000000e-01 3.950145564382772645e-01
1.342773437500000000e-01 3.959561455098035143e-01
1.464843750000000000e-01 3.979531512480884992e-01
1.586914062500000000e-01 3.969188816438720679e-01
1.708984375000000000e-01 3.944826761073774724e-01
1.831054687500000000e-01 3.932279645658458000e-01
1.953125000000000000e-01 3.926116348511911047e-01
2.075195312500000000e-01 3.920319051655343778e-01
2.197265625000000000e-01 3.928504531605604422e-01
2.319335937500000000e-01 3.930843190451043800e-01
2.441406250000000000e-01 3.937609150467192287e-01
2.563476562500000000e-01 3.945712508253128581e-01
2.685546875000000000e-01 3.957364675958312539e-01
2.807617187500000000e-01 3.964261020081175091e-01
2.929687500000000000e-01 3.966391504649329214e-01
3.051757812500000000e-01 3.967262404319509828e-01
3.173828125000000000e-01 3.968647584520033078e-01
3.295898437500000000e-01 3.967889591588707465e-01
3.417968750000000000e-01 3.972191541979129270e-01
3.540039062500000000e-01 3.990466053595282392e-01
3.662109375000000000e-01 3.998061995486947295e-01
3.784179687500000000e-01 3.999714771791858525e-01
3.906250000000000000e-01 4.010392677246840676e-01
4.028320312500000000e-01 4.031606329114775789e-01
4.150390625000000000e-01 4.250760773974817663e-01
4.272460937500000000e-01 4.998779045926815545e-01
4.394531250000000000e-01 6.119940665270359181e-01
4.516601562500000000e-01 6.924240711750433430e-01
4.638671875000000000e-01 7.182512875758186865e-01
4.760742187500000000e-01 7.473223750031032786e-01
4.882812500000000000e-01 8.195627025712789449e-01
5.004882812500000000e-01 8.333736876908306446e-01
5.126953125000000000e-01 8.341398211741417601e-01
5.249023437500000000e-01 8.631881172816648906e-01
5.371093750000000000e-01 8.691474132068400804e-01
5.493164062500000000e-01 8.387717247472412652e-01
5.615234375000000000e-01 8.358047725263408889e-01
5.737304687500000000e-01 8.557091628525903548e-01
5.859375000000000000e-01 8.588454523330565360e-01
5.981445312500000000e-01 8.504468630688519770e-01
6.103515625000000000e-01 8.517212648794669771e-01
6.225585937500000000e-01 8.464214680360262477e-01
6.347656250000000000e-01 8.399860244568219114e-01
6.469726562500000000e-01 8.238609273308751257e-01
6.591796875000000000e-01 8.256229666610519491e-01
6.713867187500000000e-01 8.400709779410536759e-01
6.835937500000000000e-01 8.562673239502323064e-01
6.958007812500000000e-01 8.724742039840932550e-01
7.080078125000000000e-01 8.936278131662634960e-01
7.202148437500000000e-01 9.005850190434236957e-01
7.324218750000000000e-01 9.043904543804898166e-01
7.446289062500000000e-01 9.087231641608782828e-01
7.568359375000000000e-01 9.081971976931169088e-01
7.690429687500000000e-01 9.173827092849560216e-01
7.812500000000000000e-01 9.288053840464175481e-01
7.934570312500000000e-01 9.343828412333416988e-01
8.056640625000000000e-01 9.367248350722322536e-01
8.178710937500000000e-01 9.395366580511088639e-01
8.300781250000000000e-01 9.415538254860601475e-01
8.422851562500000000e-01 9.509921325216109667e-01
8.544921875000000000e-01 9.593023630311262595e-01
8.666992187500000000e-01 9.600908522604534312e-01
8.789062500000000000e-01 9.613017763508868718e-01
8.911132812500000000e-01 9.637903640947016459e-01
9.033203125000000000e-01 9.676373450614861316e-01
9.155273437500000000e-01 9.627937822459731176e-01
9.277343750000000000e-01 9.619509286674932103e-01
9.399414062500000000e-01 9.645492728062597942e-01
9.521484375000000000e-01 9.666276413060725936e-01
9.643554687500000000e-01 9.643293873311922226e-01
9.765625000000000000e-01 9.652658030695997482e-01
9.887695312500000000e-01 9.696771621036706090e-01
1.000976562500000000e+00 9.624942513180465564e-01
1.013183593750000000e+00 9.557403315483029571e-01
1.025390625000000000e+00 9.590197189599708461e-01
1.037597656250000000e+00 9.529641060890792215e-01
1.049804687500000000e+00 9.432705977314602697e-01
1.062011718750000000e+00 9.410168930110118790e-01
1.074218750000000000e+00 9.336187537005111725e-01
1.086425781250000000e+00 9.310967880018560239e-01
1.098632812500000000e+00 9.239994066253746086e-01
1.110839843750000000e+00 9.208522474282552217e-01
1.123046875000000000e+00 9.241331759178570415e-01
1.135253906250000000e+00 9.194009359525643355e-01
1.147460937500000000e+00 9.192836020899985972e-01
1.159667968750000000e+00 9.204841038929771901e-01
1.171875000000000000e+00 9.181938833718742421e-01
1.184082031250000000e+00 9.150060840310451082e-01
1.196289062500000000e+00 8.995968190119463248e-01
1.208496093750000000e+00 8.975491671836075547e-01
1.220703125000000000e+00 9.045723655647759376e-01
1.232910156250000000e+00 8.991500285674435267e-01
1.245117187500000000e+00 8.984261311580917786e-01
1.257324218750000000e+00 8.956581564314296529e-01
1.269531250000000000e+00 8.842450944230596521e-01
1.281738281250000000e+00 8.870407223297324117e-01
1.293945312500000000e+00 8.900158861167599689e-01
1.306152343750000000e+00 9.021055560747726076e-01
1.318359375000000000e+00 9.012643401999778092e-01
1.330566406250000000e+00 9.036125536663319746e-01
1.342773437500000000e+00 9.049926223267015235e-01
1.354980468750000000e+00 9.140369987365140059e-01
1.367187500000000000e+00 9.264258188953015116e-01
1.379394531250000000e+00 9.382108659776714488e-01
1.391601562500000000e+00 9.409894809548788874e-01
1.403808593750000000e+00 9.395125749879268406e-01
1.416015625000000000e+00 9.204519202030420066e-01
1.428222656250000000e+00 8.897070400235238541e-01
1.440429687500000000e+00 8.694430516096993689e-01
1.452636718750000000e+00 8.600032488074723647e-01
1.464843750000000000e+00 8.528469152882012239e-01
1.477050781250000000e+00 8.534320416679990196e-01
1.489257812500000000e+00 8.497569817559755823e-01
1.501464843750000000e+00 8.513683789094096399e-01
1.513671875000000000e+00 8.386749984662834612e-01
1.525878906250000000e+00 8.131935206399543148e-01
1.538085937500000000e+00 8.039698923307717626e-01
1.550292968750000000e+00 7.919488026988277252e-01
1.562500000000000000e+00 7.591221899700256737e-01
1.574707031250000000e+00 7.264741179234655011e-01
1.586914062500000000e+00 7.069196404819352297e-01
1.599121093750000000e+00 6.874332763598908214e-01
1.611328125000000000e+00 6.761538454760018801e-01
1.623535156250000000e+00 6.738527245739694971e-01
1.635742187500000000e+00 6.705405940111015539e-01
1.647949218750000000e+00 6.708641713139609219e-01
1.660156250000000000e+00 6.664580628013084818e-01
1.672363281250000000e+00 6.573172569845311397e-01
1.684570312500000000e+00 6.383434394994813577e-01
1.696777343750000000e+00 6.357439731187540799e-01
1.708984375000000000e+00 6.390066879273735845e-01
1.721191406250000000e+00 6.346160531499820401e-01
1.733398437500000000e+00 6.261207798738424035e-01
1.745605468750000000e+00 6.169176590913466596e-01
1.757812500000000000e+00 6.122362907963699863e-01
1.770019531250000000e+00 6.243177383160368743e-01
1.782226562500000000e+00 6.272697384392358355e-01
1.794433593750000000e+00 6.057765046880297932e-01
1.806640625000000000e+00 5.984811008407341371e-01
1.818847656250000000e+00 5.890454422407603863e-01
1.831054687500000000e+00 5.831958091507551956e-01
1.843261718750000000e+00 5.807102919475434222e-01
1.855468750000000000e+00 5.864884409357605799e-01
1.867675781250000000e+00 5.752608064401725230e-01
1.879882812500000000e+00 5.540316806071836631e-01
1.892089843750000000e+00 5.468021504701524593e-01
1.904296875000000000e+00 5.379920312435737539e-01
1.916503906250000000e+00 5.066934874738143746e-01
1.928710937500000000e+00 4.314020638811841835e-01
1.940917968750000000e+00 3.579234383801961350e-01
1.953125000000000000e+00 3.461024062484425734e-01
1.965332031250000000e+00 3.133888072790120272e-01
1.977539062500000000e+00 2.304528315238916492e-01
1.989746093750000000e+00 1.201379878423556175e-01
2.001953125000000000e+00 9.736704023626777116e-02
2.014160156250000000e+00 9.729323415184661095e-02
2.026367187500000000e+00 1.229484759521932979e-01
2.038574218750000000e+00 1.427470109302238221e-01
2.050781250000000000e+00 1.305475894282876748e-01
2.062988281250000000e+00 1.195750958798097591e-01
2.075195312500000000e+00 1.399717855469603534e-01
2.087402343750000000e+00 1.341693098745937451e-01
2.099609375000000000e+00 1.232008650547233575e-01
2.111816406250000000e+00 1.000190561128711936e-01
2.124023437500000000e+00 7.375295784742780247e-02
2.136230468750000000e+00 1.026596585092121872e-01
2.148437500000000000e+00 1.241001818377448218e-01
2.160644531250000000e+00 1.296148047821255034e-01
2.172851562500000000e+00 1.492639921469742781e-01
2.185058593750000000e+00 1.707421199987275984e-01
2.197265625000000000e+00 1.855268417394249914e-01
2.209472656250000000e+00 2.078633500596418771e-01
2.221679687500000000e+00 2.312409444065655906e-01
2.233886718750000000e+00 2.660013568486814250e-01
2.246093750000000000e+00 2.791367499979033884e-01
2.258300781250000000e+00 2.697516725448710351e-01
2.270507812500000000e+00 2.830325569196935898e-01
2.282714843750000000e+00 2.802426068806264658e-01
2.294921875000000000e+00 2.798195389652958220e-01
2.307128906250000000e+00 2.700358550327939255e-01
2.319335937500000000e+00 2.506572195074845966e-01
2.331542968750000000e+00 2.538472185519388136e-01
2.343750000000000000e+00 2.428954023006553442e-01
2.355957031250000000e+00 2.401676217698009430e-01
2.368164062500000000e+00 2.469216875676938650e-01
2.380371093750000000e+00 2.059601177777857228e-01
2.392578125000000000e+00 1.781533919269010224e-01
2.404785156250000000e+00 1.785989910032947936e-01
2.416992187500000000e+00 1.655459942641155369e-01
2.429199218750000000e+00 1.376150975758895778e-01
2.441406250000000000e+00 1.081392861622837293e-01
2.453613281250000000e+00 7.484942767817430453e-02
2.465820312500000000e+00 4.550578577340109315e-02
2.478027343750000000e+00 4.020955552858837545e-02
2.490234375000000000e+00 2.149798950306855069e-02
2.502441406250000000e+00 2.709591989899802662e-03
2.514648437500000000e+00 -1.720031452775877545e-02
2.526855468750000000e+00 -2.148241648857118075e-02
2.539062500000000000e+00 2.102731941584587427e-02
2.551269531250000000e+00 7.635046236674682130e-02
2.563476562500000000e+00 9.530979822528626300e-02
2.575683593750000000e+00 1.032608984040191413e-01
2.587890625000000000e+00 1.243597836901612075e-01
2.600097656250000000e+00 1.425018588678955977e-01
2.612304687500000000e+00 1.223457899778636476e-01
2.624511718750000000e+00 1.142262541471647935e-01
2.636718750000000000e+00 9.166604519902414594e-02
2.648925781250000000e+00 6.929992054048755845e-02
2.661132812500000000e+00 5.662894659779347389e-02
2.673339843750000000e+00 4.169481286570782264e-02
2.685546875000000000e+00 -2.507929949466818857e-03
2.697753906250000000e+00 -2.997663214050786881e-02
2.709960937500000000e+00 -2.374699074700471410e-02
2.722167968750000000e+00 -5.834946969665335409e-02
2.734375000000000000e+00 -7.451657532261556083e-02
2.746582031250000000e+00 -9.271980679524333135e-02
2.758789062500000000e+00 -1.079479421972050629e-01
2.770996093750000000e+00 -8.891338394823304625e-02
2.783203125000000000e+00 -7.012173404474010552e-02
2.795410156250000000e+00 -7.122363487089890255e-02
2.807617187500000000e+00 -5.920854866305933634e-02
2.819824218750000000e+00 -7.673473579916229026e-02
2.832031250000000000e+00 -1.014415728750940743e-01
2.844238281250000000e+00 -1.628703130281719813e-01
2.856445312500000000e+00 -1.861574454954041113e-01
2.868652343750000000e+00 -1.868444842314111454e-01
2.880859375000000000e+00 -2.102635844536893672e-01
2.893066406250000000e+00 -2.119265262648868386e-01
2.905273437500000000e+00 -2.209668709036187451e-01
2.917480468750000000e+00 -2.247416121658309673e-01
2.929687500000000000e+00 -2.420787014701232809e-01
2.941894531250000000e+00 -2.853122719327979562e-01
2.954101562500000000e+00 -3.105962167230524873e-01
2.966308593750000000e+00 -3.080400412311227187e-01
2.978515625000000000e+00 -3.271259061296398762e-01
2.990722656250000000e+00 -3.270882254145847101e-01
3.002929687500000000e+00 -3.175804718238464108e-01
3.015136718750000000e+00 -3.511885987049669922e-01
3.027343750000000000e+00 -3.512595966752939391e-01
3.039550781250000000e+00 -3.400475424745061370e-01
3.051757812500000000e+00 -3.267124196045630979e-01
3.063964843750000000e+00 -3.054415061851810664e-01
3.076171875000000000e+00 -3.044243152327206214e-01
3.088378906250000000e+00 -3.450761316717794180e-01
3.100585937500000000e+00 -3.653284407499810538e-01
3.112792968750000000e+00 -3.585091990739578960e-01
3.125000000000000000e+00 -3.620099065307060271e-01
3.137207031250000000e+00 -3.693758356722704472e-01
3.149414062500000000e+00 -3.593675235519770972e-01
3.161621093750000000e+00 -3.612529465508453885e-01
3.173828125000000000e+00 -3.906500430124256740e-01
3.186035156250000000e+00 -3.970843916071728485e-01
3.198242187500000000e+00 -3.990167789597924286e-01
3.210449218750000000e+00 -4.010871732792044009e-01
3.222656250000000000e+00 -4.069145825602005218e-01
3.234863281250000000e+00 -4.077464595099958289e-01
3.247070312500000000e+00 -4.135591066309750596e-01
3.259277343750000000e+00 -4.093512785983278168e-01
3.271484375000000000e+00 -4.046267872107340846e-01
3.283691406250000000e+00 -4.119490488031086195e-01
3.295898437500000000e+00 -4.081854916002092826e-01
3.308105468750000000e+00 -4.081852982818232056e-01
3.320312500000000000e+00 -4.167344494550390133e-01
3.332519531250000000e+00 -3.979408158700594167e-01
3.344726562500000000e+00 -4.064855593779084231e-01
3.356933593750000000e+00 -4.087849015718157952e-01
3.369140625000000000e+00 -4.002774121950335440e-01
3.381347656250000000e+00 -4.147217450215871515e-01
3.393554687500000000e+00 -4.205254915581824737e-01
3.405761718750000000e+00 -4.363069904386296383e-01
3.417968750000000000e+00 -4.907119437341635471e-01
3.430175781250000000e+00 -4.973013570482908152e-01
3.442382812500000000e+00 -4.304065507402424218e-01
3.454589843750000000e+00 -3.833286951383422791e-01
3.466796875000000000e+00 -3.303978630416645190e-01
3.479003906250000000e+00 -2.720328803269183582e-01
3.491210937500000000e+00 -2.432350296114522692e-01
3.503417968750000000e+00 -2.439295568066644215e-01
3.515625000000000000e+00 -2.394055512744304448e-01
3.527832031250000000e+00 -2.371314846170829993e-01
3.540039062500000000e+00 -2.142668103936272717e-01
3.552246093750000000e+00 -1.947298385407272570e-01
3.564453125000000000e+00 -2.259361255553870573e-01
3.576660156250000000e+00 -2.606092533659541410e-01
3.588867187500000000e+00 -2.604396829247263012e-01
3.601074218750000000e+00 -2.527225033885344696e-01
3.613281250000000000e+00 -2.635110043747479480e-01
3.625488281250000000e+00 -2.608595579700330735e-01
3.637695312500000000e+00 -2.739654579718529548e-01
3.649902343750000000e+00 -2.897546717578953213e-01
3.662109375000000000e+00 -2.935629368377330461e-01
3.674316406250000000e+00 -2.932838159645073661e-01
3.686523437500000000e+00 -2.753954395460738169e-01
3.698730468750000000e+00 -2.520085858206088658e-01
3.710937500000000000e+00 -2.387698833644952834e-01
3.723144531250000000e+00 -2.389767434561850534e-01
3.735351562500000000e+00 -2.268283108131522730e-01
3.747558593750000000e+00 -2.169846266774498322e-01
3.759765625000000000e+00 -2.133798218352752074e-01
3.771972656250000000e+00 -2.063660409307948862e-01
3.784179687500000000e+00 -1.966623233874714438e-01
3.796386718750000000e+00 -1.938220742142209851e-01
3.808593750000000000e+00 -1.824479841337159347e-01
3.820800781250000000e+00 -1.787541081662430420e-01
3.833007812500000000e+00 -1.744172402067093453e-01
3.845214843750000000e+00 -1.593878517527400895e-01
3.857421875000000000e+00 -1.523729225719936131e-01
3.869628906250000000e+00 -1.485157784636040867e-01
3.881835937500000000e+00 -1.294302442701510403e-01
3.894042968750000000e+00 -1.219699458802313563e-01
3.906250000000000000e+00 -1.286738689003254776e-01
3.918457031250000000e+00 -1.194826437595565422e-01
3.930664062500000000e+00 -1.134173328291503829e-01
3.942871093750000000e+00 -1.119189206670546666e-01
3.955078125000000000e+00 -1.037736335607444826e-01
3.967285156250000000e+00 -1.022722053903432210e-01
3.979492187500000000e+00 -1.102090701453580929e-01
3.991699218750000000e+00 -1.097872706672331222e-01
4.003906250000000000e+00 -1.169120737936871629e-01
4.016113281250000000e+00 -1.049270689742912988e-01
4.028320312500000000e+00 -8.396808847819928201e-02
4.040527343750000000e+00 -9.200939987022620226e-02
4.052734375000000000e+00 -1.174147525864903535e-01
4.064941406250000000e+00 -1.215690632874103366e-01
4.077148437500000000e+00 -1.435877091459270283e-01
4.089355468750000000e+00 -1.742884895173799353e-01
4.101562500000000000e+00 -1.884314839219660698e-01
4.113769531250000000e+00 -1.793307648076036820e-01
4.125976562500000000e+00 -1.801454438767351451e-01
4.138183593750000000e+00 -1.805782350558592930e-01
4.150390625000000000e+00 -1.912073984624470258e-01
4.162597656250000000e+00 -1.979793709056857087e-01
4.174804687500000000e+00 -1.598307032844428766e-01
4.187011718750000000e+00 -1.232849343529727887e-01
4.199218750000000000e+00 -1.216628496100854995e-01
4.211425781250000000e+00 -1.312226038808768647e-01
4.223632812500000000e+00 -1.207106216056600678e-01
4.235839843750000000e+00 -9.173536369707832594e-02
4.248046875000000000e+00 -4.838149982761644902e-02
4.260253906250000000e+00 -2.523590110175477283e-02
4.272460937500000000e+00 -2.624559201996350469e-02
4.284667968750000000e+00 -3.515427798002329629e-02
4.296875000000000000e+00 -7.338418300560424490e-02
4.309082031250000000e+00 -1.169602570683365705e-01
4.321289062500000000e+00 -1.234267503814625161e-01
4.333496093750000000e+00 -1.204687894334061510e-01
4.345703125000000000e+00 -1.293120156573990265e-01
4.357910156250000000e+00 -1.496767945449085369e-01
4.370117187500000000e+00 -1.745794563992706383e-01
4.382324218750000000e+00 -1.978333334568140589e-01
4.394531250000000000e+00 -2.110249868694456798e-01
4.406738281250000000e+00 -2.225769290765532149e-01
4.418945312500000000e+00 -2.577355758059302615e-01
4.431152343750000000e+00 -2.783022874160498428e-01
4.443359375000000000e+00 -2.843498221170455698e-01
4.455566406250000000e+00 -3.124988697550198369e-01
4.467773437500000000e+00 -3.273171964647308418e-01
4.479980468750000000e+00 -3.488192855160606731e-01
4.492187500000000000e+00 -4.143709998468165234e-01
4.504394531250000000e+00 -4.399076378134361698e-01
4.516601562500000000e+00 -4.286146767491979537e-01
4.528808593750000000e+00 -4.536370650621842637e-01
4.541015625000000000e+00 -4.662982939990217846e-01
4.553222656250000000e+00 -4.861152848869091381e-01
4.565429687500000000e+00 -4.962886348603247622e-01
4.577636718750000000e+00 -4.865606815057240686e-01
4.589843750000000000e+00 -4.728174007615716934e-01
4.602050781250000000e+00 -4.608312866431266697e-01
4.614257812500000000e+00 -4.301249574813438836e-01
4.626464843750000000e+00 -4.282840536231941053e-01
4.638671875000000000e+00 -4.261045005862095780e-01
4.650878906250000000e+00 -4.023645641993213173e-01
4.663085937500000000e+00 -3.889419305351152212e-01
4.675292968750000000e+00 -3.669907535213822736e-01
4.687500000000000000e+00 -3.621434953762630027e-01
4.699707031250000000e+00 -3.782700673690310156e-01
4.711914062500000000e+00 -3.961670901340063056e-01
4.724121093750000000e+00 -4.133609238412406794e-01
4.736328125000000000e+00 -4.068729164072615867e-01
4.748535156250000000e+00 -3.953690306787210340e-01
4.760742187500000000e+00 -3.933892653427560893e-01
4.772949218750000000e+00 -4.012697064093925237e-01
4.785156250000000000e+00 -4.044262385910709079e-01
4.797363281250000000e+00 -3.903555421697583183e-01
4.809570312500000000e+00 -3.840612052128831722e-01
